   1.1760291e-01
  -2.2089766e-01
   2.4758174e-01
   2.5037517e-01
  -2.2145733e-01
   3.6017868e-01
   3.0656220e-01
  -3.3454489e-02
   9.7956898e-02
   1.0628205e-01
   2.9384139e-02
   3.0132220e-01
  -1.3620439e-01
   5.9395457e-01
  -1.2256422e-01
  -3.7027591e-02
   2.8616358e-01
   1.1028485e-01
   1.8858949e-01
   1.6172333e-02
   3.3962231e-01
  -1.9598258e-01
   2.6528698e-01
   4.2176274e-01
  -2.4225417e-01
   2.5468683e-01
   4.7847861e-01
  -1.7906805e-01
  -5.9679987e-02
   5.1089833e-01
   1.5542988e-01
   3.2026686e-01
   1.9194616e-01
   8.0205813e-02
   2.7430243e-01
   2.0166299e-01
   5.4565445e-01
   5.2432455e-02
   5.2671329e-01
   5.3546766e-01
   7.6507761e-02
   5.2619436e-01
   3.3125358e-02
   7.1011402e-01
   8.2748743e-02
   5.5067768e-01
   5.2966518e-01
   2.9443144e-01
  -6.8314009e-02
   4.6963326e-01
   5.7554773e-02
   3.8353693e-01
   2.0287162e-01
   4.7100612e-01
   1.6611949e-01
  -1.1994049e-01
   2.7191442e-01
  -4.3454904e-02
   2.8237023e-01
   2.4392147e-01
   2.3402692e-01
   6.4192703e-02
   4.2267741e-01
  -4.6738257e-01
   1.7253211e-01
   2.5899984e-01
   1.7159665e-01
   5.7815901e-02
  -1.4653999e-01
   4.6585909e-02
   1.1799030e-01
   9.4564771e-02
   3.3655882e-01
   6.7402563e-01
   5.9654697e-01
   1.0830814e+00
   1.1550884e+00
   1.0260880e+00
   1.0844103e+00
   3.0989844e-01
   4.0281159e-01
   3.0507147e-01
   2.8710106e-01
  -3.1451144e-01
  -2.7433883e-02
  -8.9197473e-02
  -4.7371023e-01
  -4.2012989e-01
   1.4444178e-01
  -1.0842145e-01
   1.3847298e-01
   1.0407819e-01
  -7.4226641e-02
  -1.0090402e-01
   1.3561287e-01
  -2.8945862e-01
   2.3429896e-01
   2.6467760e-01
  -9.1741648e-03
   2.1300880e-01
  -2.5386173e-02
  -3.7219863e-01
   4.4691694e-01
  -6.7953443e-02
   1.6651580e-01
   1.6200958e-01
   2.0269546e-01
   1.5189434e-02
   8.3690449e-02
   2.3161111e-01
  -3.1794547e-02
  -4.8246963e-02
   6.4392985e-01
   2.8493204e-01
   3.7587708e-03
   4.0218549e-01
   1.2995769e-01
   6.2574544e-02
   3.0025131e-01
   5.9815722e-01
   3.3580707e-01
   5.2789353e-01
   9.3758418e-02
   4.0624534e-01
   5.2703828e-01
   3.0207105e-01
   2.4489649e-01
   8.2239781e-01
   5.0783473e-01
   2.7907066e-01
   6.3815075e-01
   4.5642589e-01
   6.6340445e-02
   6.8648050e-01
   3.5565393e-01
   7.0671439e-01
   6.3433185e-01
   2.0724811e-01
   1.1877621e-01
   5.0136079e-01
   4.1222979e-01
   2.0605691e-01
   4.7940316e-01
   6.6880735e-01
   4.2493943e-02
  -2.1603048e-02
   2.0519784e-01
   5.4945748e-01
   1.6082704e-01
   3.7001814e-02
   2.7420406e-01
   2.0117260e-01
   2.8861226e-01
  -7.6881393e-02
   4.7592970e-02
   6.2190342e-03
   1.3362046e-01
   5.8406189e-01
  -3.7012110e-02
  -2.6103423e-01
   2.6167511e-01
  -1.2251672e-01
   1.6552978e-01
  -3.0425790e-02
   3.1242375e-01
   2.7191692e-01
   1.1223823e-02
  -5.6102167e-01
   5.5085265e-02
   4.7235509e-01
   3.6696942e-01
  -3.2668076e-01
   1.5989758e-01
   2.7000880e-02
  -2.9199241e-02
  -1.0797937e-01
   3.2074513e-01
   9.8072620e-02
   1.9310656e-01
  -2.3576047e-02
  -1.4738562e-01
   3.8236300e-02
   1.0478793e-01
   5.3562956e-01
  -3.5471559e-01
  -1.3545671e-01
   5.1783480e-01
   1.2596365e-01
  -2.4143277e-01
   6.3383783e-02
   2.5806469e-01
  -1.0306505e-01
   2.4602093e-01
  -9.7083557e-02
   4.4231366e-01
  -6.0159307e-02
  -1.8558542e-01
   7.2343359e-02
   4.5968745e-01
  -2.4091850e-01
   2.6258913e-01
  -7.4663685e-02
   3.5567631e-01
  -7.5425968e-02
   3.0058000e-01
  -3.2591406e-01
   5.7317247e-02
   2.9071495e-01
   6.9994713e-02
   5.3182606e-01
   2.5520360e-02
  -4.1322200e-01
  -1.2803489e-01
   4.8506699e-01
   1.1969398e-01
   2.2467620e-01
   4.1440131e-01
  -3.7397026e-01
   1.3115739e-01
   1.3512513e-01
   3.8423434e-02
   1.7262258e-01
   5.5818667e-01
   2.4568164e-02
   3.8026403e-01
  -1.2759729e-01
   2.1237973e-01
   9.5255713e-02
   5.7698093e-01
   3.2905380e-01
   4.4578197e-01
   3.5269585e-01
   3.2462206e-02
   2.4390114e-01
   6.6401936e-01
   2.5795832e-01
   2.3390223e-01
   5.9481003e-01
   4.2647650e-01
   8.4424262e-02
   4.4263579e-01
   1.9036047e-01
   3.4210126e-02
   4.0766880e-01
   5.8295146e-01
  -4.3030717e-02
   2.3594489e-01
   1.9688342e-02
   5.0398559e-01
  -4.1590961e-01
   4.5950041e-01
   1.2300534e-01
   7.4864727e-02
   3.3152510e-01
  -2.6054220e-02
   1.4009360e-01
  -6.0942584e-02
  -6.7816797e-02
   2.1379346e-01
   4.0743471e-01
   5.1413839e-02
  -3.2715789e-01
   2.6293859e-01
  -2.8467433e-01
  -5.6012313e-02
   4.0984777e-03
   4.4976403e-02
   3.4272391e-01
   2.9662717e-01
   9.9989647e-02
   5.1324157e-01
   1.1484802e+00
   9.5360523e-01
   1.3357561e+00
   1.1323553e+00
   9.1399672e-01
   6.7749348e-01
   5.1454824e-01
   3.7519432e-01
   4.8110976e-02
   2.1595365e-01
  -2.5142884e-01
  -6.7139115e-01
  -2.9833091e-01
  -3.4449757e-01
  -3.0992759e-01
  -2.9456214e-01
  -3.8039573e-02
  -4.9106532e-01
  -1.7536610e-01
  -1.5637508e-01
  -2.6706449e-01
   4.9000961e-01
  -2.1794932e-01
  -5.7025052e-01
   3.0530770e-01
  -7.5333675e-02
  -4.1617390e-01
   1.0516914e-01
   3.3135246e-01
  -2.7482451e-01
  -2.4499092e-02
  -1.2921148e-01
  -4.0853151e-01
   3.1262243e-01
   1.5407631e-02
   2.2076517e-01
  -1.4917612e-01
  -1.7369126e-01
   3.3148880e-02
  -1.3789971e-01
   3.0682546e-01
  -2.9633110e-01
   4.9493472e-01
   4.1758907e-01
  -3.9905662e-01
  -2.0220393e-01
   1.7873690e-01
   3.1860563e-01
   3.1820310e-01
   4.7829620e-01
  -1.4592375e-02
  -1.9798404e-02
   1.4387822e-01
   2.5412202e-01
   3.9705236e-01
   6.2594115e-01
   4.9592608e-01
  -2.3060159e-01
   4.0313215e-01
   3.9091953e-01
   3.6077908e-01
   6.1123201e-01
   4.5542732e-01
   2.8167811e-01
   5.3148435e-01
  -8.4525394e-02
   7.5899908e-01
   6.1786073e-01
   3.8293878e-01
   3.1748873e-01
   1.7527246e-01
   4.6422720e-01
   5.7566432e-01
   3.6982885e-01
   3.0128355e-01
   3.7725495e-01
   2.7852174e-01
  -2.9735068e-02
   5.6325925e-01
   2.8053329e-01
   5.1274999e-01
   2.4638457e-03
  -1.5531215e-01
   4.1798484e-01
   2.4837288e-01
   5.0117909e-02
   2.7473266e-01
  -2.9665813e-01
   5.3870325e-01
  -1.2800562e-01
  -1.1104141e-01
   4.0161983e-01
  -2.6839983e-01
  -9.3361002e-02
  -1.0034900e-01
   5.3687194e-01
   4.7422497e-02
  -3.6969390e-01
  -5.0733016e-01
   2.3871117e-01
   2.5288071e-01
   2.0074734e-01
  -5.5584596e-01
  -1.2104850e-01
   2.0755440e-04
   2.1190099e-01
  -8.7539570e-02
  -3.0441145e-01
  -2.5935759e-01
   7.9200715e-02
   3.8909406e-01
  -2.3683244e-01
  -3.7351100e-01
  -4.2106024e-02
  -3.1082176e-01
   3.9206867e-01
   1.6206579e-01
  -4.9209505e-01
  -3.3166959e-01
   2.7206929e-01
   1.4235124e-02
   3.7399423e-02
  -5.4933813e-01
   4.6247445e-02
   2.1596224e-01
  -1.0292610e-01
  -1.9268432e-01
   3.7975188e-02
  -2.4366209e-01
  -2.1610032e-02
  -2.8730792e-02
   1.8937598e-01
  -1.9942033e-01
  -4.1325397e-01
   2.2854639e-01
   3.5459554e-02
  -1.1713105e-01
   1.0521038e-02
  -3.1957830e-01
   9.6198661e-02
  -8.1269706e-02
   6.8773703e-02
  -3.7397627e-01
   3.8822819e-01
   7.5293874e-02
  -6.2355369e-01
  -3.3201641e-02
   1.2575481e-01
  -5.6851181e-02
   1.6520646e-01
   1.7666649e-01
  -3.6649737e-01
  -7.0912659e-01
   4.9887652e-01
   1.1538582e-01
   2.6008162e-02
  -7.4723485e-02
  -3.4740547e-01
   2.0857008e-01
  -2.3837027e-01
  -8.6454803e-02
   4.0690247e-02
   2.3089951e-01
   3.1225830e-02
  -5.6809957e-01
   2.1962684e-01
  -1.7660112e-01
   4.5468481e-01
  -3.4134540e-01
  -9.7467446e-02
  -1.5195993e-02
   2.6212373e-01
   4.2745391e-02
   6.9694761e-02
  -3.3011422e-01
   9.4036079e-02
   3.4533498e-01
   1.4717363e-01
   8.9170190e-02
   7.6630543e-02
   1.8864657e-01
   6.9478895e-02
   7.9780304e-02
   4.8488774e-01
   2.2395308e-01
   3.8837680e-01
   4.9795609e-03
   2.0496529e-01
   4.5836649e-01
   2.5155530e-02
   3.8564408e-01
   3.3610465e-01
   3.9832276e-01
   2.7094654e-01
  -2.9732597e-01
   1.7306031e-01
   5.4356249e-01
   3.0784634e-01
   1.4509154e-02
  -6.5577470e-02
   1.9741989e-01
   1.0767132e-02
  -2.5962709e-02
   1.0301454e-01
   4.6511267e-01
  -6.1377161e-01
   3.1461905e-01
  -1.6995303e-01
   4.1653592e-01
  -5.8146711e-01
   4.6297213e-02
   1.2292047e-01
   2.0300460e-02
   1.0707843e-01
  -2.5431655e-01
  -1.4535370e-01
  -1.3814346e-01
   1.1308913e-01
  -2.6449396e-01
   2.7323412e-01
  -1.3130574e-01
  -6.5128643e-01
  -1.9172625e-01
  -2.0940408e-01
   2.2908755e-02
  -9.7084854e-02
  -9.1482314e-02
  -1.3728882e-01
   2.7462496e-01
   1.5691325e-01
   1.0668758e+00
   7.6984764e-01
   1.1070683e+00
   1.1943103e+00
   1.1352666e+00
   7.8037856e-01
   1.0335233e+00
   7.9987569e-01
   4.1445172e-01
   2.3437069e-01
  -2.7138436e-02
   5.8644960e-02
  -2.9375653e-01
  -8.6615129e-02
  -2.0954507e-01
   3.9226217e-01
   1.0800304e-01
  -4.7537255e-02
  -1.2444087e-01
   1.3856871e-02
   1.8770155e-01
   5.7042272e-01
  -2.7727074e-02
   9.5024063e-02
   3.4747558e-02
   5.3061089e-02
   2.3943595e-01
   3.7268578e-01
   7.0038105e-02
  -1.3932861e-02
   1.3012406e-01
   3.1856593e-01
   3.8142378e-01
  -1.1285883e-01
   3.3636422e-01
   7.1966491e-02
   1.0067670e-01
   3.9741095e-01
   5.5439519e-01
   1.7151073e-01
  -7.7216097e-02
   3.1100814e-01
   4.5296935e-01
   2.6181023e-01
   6.6707377e-01
   1.2956414e-01
   5.2947972e-01
   2.0177505e-01
   2.1200316e-01
   8.8710691e-01
   3.7801182e-01
   4.0350094e-01
   5.4563005e-01
   2.3292862e-01
   7.7401017e-01
   5.2592011e-01
   2.9247954e-01
   4.9820139e-01
   5.4101032e-01
   8.5568661e-01
   1.3605505e-01
   5.3749477e-01
   2.0007699e-01
   5.9632153e-01
   6.0527007e-01
   4.5796822e-01
   4.4358135e-01
  -2.1656044e-01
   6.1177682e-01
   3.4947890e-01
   4.7108064e-01
   3.4249881e-01
  -1.4777616e-02
   3.5573700e-01
   1.6540752e-01
  -2.2224750e-02
   3.3530312e-01
   5.8578351e-01
  -1.5553279e-01
   1.6293855e-01
  -1.7291666e-01
   3.5817227e-01
   2.6995454e-01
  -1.7198890e-02
  -3.7956691e-03
  -3.2607138e-02
   4.6873269e-01
   7.5631786e-02
   2.1285226e-02
  -3.7185489e-01
   3.1847676e-02
   6.9567941e-01
   7.0574668e-02
  -3.3076235e-01
   2.6757368e-01
  -1.3874168e-01
   3.2955582e-01
  -3.1946613e-01
   2.2893517e-01
   1.9290722e-01
   2.0597202e-01
   1.3218465e-01
  -4.0652365e-01
   5.3566673e-02
   3.1980059e-01
  -1.3311864e-01
   2.5654953e-01
   3.8588401e-01
  -2.3152049e-01
  -2.0573995e-01
   2.2209677e-01
  -2.5694032e-02
   1.1306858e-01
   3.3208583e-01
   1.0472587e-01
  -2.4785148e-01
   1.8605807e-01
  -3.9119673e-02
  -1.9002737e-01
   6.3928319e-01
   4.0939102e-02
  -2.8801107e-01
   6.9082991e-02
   3.1745249e-01
  -8.2172779e-03
   6.8283712e-02
  -5.6418246e-02
  -4.1019168e-02
   3.2431565e-01
   5.1106831e-02
   1.4739268e-01
  -1.4622201e-02
  -4.7767872e-02
   9.3755852e-02
  -1.4008939e-01
   3.1604301e-01
   2.7697421e-01
   2.3824654e-01
  -4.3775875e-01
   1.2879864e-02
   1.9517140e-01
   2.4550771e-01
   1.9944278e-01
   1.7847673e-01
  -2.5154771e-01
   2.9612781e-01
   1.0848479e-01
   2.3509716e-01
   2.3827186e-01
   8.1421998e-02
   2.9784395e-01
   2.2006026e-01
   2.9838298e-01
   2.9972704e-01
   1.2107258e-01
   3.9947389e-01
   6.1758018e-01
   5.8898655e-02
   6.8078829e-02
   4.7375972e-01
   3.4049245e-01
   8.1318242e-01
  -1.5134800e-01
   1.3346083e-02
   1.0698605e-02
   8.0641361e-01
   2.6241891e-01
  -1.0777554e-02
   1.0703644e-01
  -1.4984491e-02
   3.2095540e-01
  -1.1413558e-02
   1.8877678e-01
   1.6654715e-01
  -3.3026399e-02
   6.3167049e-02
   1.8500183e-01
  -5.5580255e-02
   8.5814869e-02
   1.1967556e-01
  -1.6193307e-01
   3.9818288e-01
  -2.0437718e-01
  -4.4555516e-02
  -1.9316107e-01
   3.9984423e-01
  -1.8680118e-01
  -5.6585853e-01
   1.2513096e-01
   3.9759104e-01
   3.7787185e-01
   4.6806262e-01
   4.5643090e-01
   7.0884235e-01
   1.3529765e+00
   1.2868422e+00
   6.3034315e-01
   8.3613076e-01
   5.0132945e-01
   2.6283726e-01
   5.9473739e-02
   3.1365002e-01
  -3.6057810e-01
  -4.2951044e-01
   4.6722593e-01
  -2.4770695e-01
   4.9938886e-01
  -2.8623014e-01
  -3.0735024e-02
   2.9756711e-01
   1.0186856e-01
   2.3039690e-02
   5.5833587e-01
  -1.6479160e-01
   2.8549375e-01
  -1.1469411e-01
   2.6830529e-01
   3.3023713e-01
  -1.0447438e-01
   2.8603534e-01
   4.3678436e-01
  -1.3493705e-01
   2.9247531e-01
   2.3313720e-01
  -5.0222284e-04
   3.6481343e-01
   4.6560543e-01
   2.5552061e-01
   1.3857744e-02
   2.7107266e-01
   5.3028653e-01
   3.3568620e-02
   8.6793514e-01
   3.1109859e-01
  -1.0583880e-01
   4.6565905e-01
   8.2727668e-01
   3.9752874e-01
   4.1003075e-01
   3.5760236e-01
   4.3075854e-01
   6.3187349e-01
   4.0821503e-01
   5.6093720e-01
   5.1270811e-01
   4.5942262e-01
   5.6893889e-01
   2.8535880e-01
   3.6145627e-01
   6.1403642e-01
   6.4132003e-01
   1.1309016e-01
   4.4989136e-01
   1.2527841e-01
   8.4456987e-01
   2.2335158e-01
  -1.5486142e-01
   4.1794621e-01
   5.2125476e-01
   2.1698212e-01
   3.2426921e-01
  -4.2002931e-02
   7.6690881e-02
   1.9516752e-01
   4.5228673e-01
   4.1534490e-01
  -5.0380641e-01
   3.2544309e-01
   3.8902285e-01
   1.6278571e-02
   9.8528480e-02
  -1.5159072e-02
   1.7939676e-01
   2.5265070e-01
   3.2238640e-01
  -2.6989907e-01
   1.3169504e-02
   5.0187790e-01
  -2.3454430e-02
  -2.8587448e-02
   2.4822029e-01
   2.1951327e-02
   3.8625421e-01
  -2.2614664e-01
   4.0288126e-01
  -1.2729463e-01
  -2.9741158e-02
   4.2178339e-01
   2.4974789e-01
  -8.5324030e-02
   1.1691085e-01
   5.9217113e-02
   1.8581069e-02
   4.1328232e-01
  -7.8007430e-02
   4.2969170e-01
  -3.2706009e-01
   3.2276316e-01
   1.5319736e-01
   2.4845918e-01
  -1.6911429e-01
   3.2067451e-01
  -1.0635712e-01
   5.6150763e-01
  -2.8611158e-01
   4.0561966e-01
   5.9297941e-02
  -1.1059520e-03
   1.9705470e-01
   2.6883994e-03
   3.6773184e-01
   3.5619164e-02
   3.4919778e-01
  -1.1461198e-01
   2.5200854e-02
   1.0724956e-01
   3.5149549e-01
   2.7185677e-01
   1.0918115e-01
  -1.0235746e-01
   1.3453287e-01
   4.1124704e-01
  -2.9344377e-02
   2.4992223e-01
   3.9542014e-01
   1.0196587e-01
   6.7408219e-02
   1.7094723e-01
   4.5965979e-01
   6.0322659e-01
  -5.7660672e-02
   2.9202873e-01
   3.9756673e-01
   1.3749024e-01
   8.7748938e-01
   3.8195969e-01
  -8.2377605e-02
   4.3304549e-01
   4.4412820e-01
   5.5570861e-01
  -1.3391456e-01
   8.3996846e-01
  -1.0312206e-01
   6.2857241e-01
  -1.3077789e-01
   2.3128158e-01
   3.3679211e-01
   3.0919223e-01
   1.5789345e-01
  -9.9035066e-03
   3.2597762e-01
   1.8429616e-01
  -6.2790342e-02
   8.3331591e-02
   4.0289481e-01
   2.9406986e-01
  -6.8907851e-02
   1.4283776e-03
   9.0340381e-02
   4.9126303e-02
   4.6772818e-02
   5.7716657e-01
  -6.5967974e-01
   1.5047915e-01
   2.0161129e-01
   4.8599064e-01
   2.9747320e-01
   9.0643149e-01
   8.3930138e-01
   1.0904549e+00
   1.0433037e+00
   1.0418151e+00
   5.1264220e-01
   7.7803872e-01
   3.6541830e-01
  -1.8256110e-01
   8.8279162e-02
  -9.8409326e-02
  -5.4387709e-01
  -2.7651529e-01
  -4.3967802e-01
  -1.0953390e-01
  -2.4591814e-01
  -6.2357718e-02
  -1.8891416e-01
  -2.5537405e-01
  -1.8938678e-01
  -3.7990020e-02
   2.2812676e-01
   1.5014561e-01
  -4.5608235e-01
  -1.7688699e-02
  -1.1910640e-01
   1.4314594e-01
  -1.1017562e-01
   2.8448982e-01
  -1.0076874e-01
  -4.8776634e-01
   3.1373289e-01
   3.9550368e-02
   1.3638881e-01
  -2.1426612e-01
   3.0767333e-01
  -5.0371205e-01
   5.1355896e-01
   2.1550544e-01
  -1.9302747e-01
  -7.3544591e-02
   3.2622196e-01
   3.1038504e-01
  -6.2000231e-02
   4.6120098e-02
   5.3773757e-01
  -2.2390977e-02
   1.1238852e-01
   3.5504450e-01
   4.7002390e-01
   3.6588205e-01
  -6.0914373e-03
   8.1788408e-02
   7.3483962e-01
   3.5714637e-01
   6.4317330e-01
  -3.1955840e-02
   4.5047284e-01
   4.8285072e-01
   4.8709578e-01
   2.0543067e-01
   5.1458451e-01
   8.2480628e-01
   2.2066951e-01
   3.6403336e-01
   9.5366708e-02
   5.7142495e-01
   7.0080883e-01
   4.3301712e-01
   8.1311372e-02
   4.3139310e-01
   3.5804854e-01
   1.9255300e-01
   4.9187659e-01
   3.8214410e-01
   1.3513427e-02
   1.6165734e-01
   2.9607767e-01
   5.8226022e-01
  -1.5396872e-02
   6.4634368e-02
  -6.2861103e-02
   2.0303470e-01
   2.9773879e-01
   1.6233064e-01
   7.4764814e-02
   1.9936203e-02
   8.6698972e-02
  -2.5671587e-01
   1.1037701e-01
   2.0568310e-01
   2.4106980e-01
  -1.5112949e-01
  -9.0249703e-02
   2.3907026e-01
  -2.6609200e-01
  -1.4678913e-01
   1.0816955e-01
   4.6977891e-01
  -2.9428602e-01
   1.7276968e-01
  -2.6397024e-01
  -8.8262030e-02
  -1.5034068e-01
   3.9194426e-01
   2.9886979e-01
  -5.0926720e-01
   3.5791588e-03
   2.8851372e-01
  -2.9565211e-01
   8.0852621e-02
  -2.7941494e-02
   2.3696084e-01
  -1.6356343e-01
   1.1847882e-01
  -2.2449064e-02
  -2.1986823e-01
   1.2175657e-01
   1.1680720e-01
   1.1432484e-01
   2.8033804e-02
  -4.3201092e-01
   2.6112788e-01
   2.8463056e-01
  -9.4058483e-02
  -2.1153605e-01
   1.4881193e-01
   2.1623392e-02
   1.8958206e-01
  -3.8950727e-01
   4.9882493e-01
   1.7043944e-02
