   1.1801582e-01
   1.1865599e-01
   1.1931464e-01
   1.1998241e-01
   1.2065079e-01
   1.2131331e-01
   1.2196551e-01
   1.2260498e-01
   1.2323129e-01
   1.2384608e-01
   1.2445298e-01
   1.2505767e-01
   1.2566782e-01
   1.2629317e-01
   1.2694544e-01
   1.2763840e-01
   1.2838784e-01
   1.2921157e-01
   1.3012942e-01
   1.3117541e-01
   1.3243347e-01
   1.3399575e-01
   1.3598372e-01
   1.3855036e-01
   1.4187944e-01
   1.4617887e-01
   1.5170488e-01
   1.5870480e-01
   1.6740087e-01
   1.7799028e-01
   1.9062342e-01
   2.0532901e-01
   2.2200824e-01
   2.4039841e-01
   2.6007139e-01
   2.8043362e-01
   3.0072613e-01
   3.2006648e-01
   3.3760228e-01
   3.5228348e-01
   3.6325613e-01
   3.6991823e-01
   3.7191966e-01
   3.6916223e-01
   3.6179965e-01
   3.5023755e-01
   3.3498141e-01
   3.1693131e-01
   2.9720916e-01
   2.7679448e-01
   2.5652422e-01
   2.3709275e-01
   2.1905185e-01
   2.0281073e-01
   1.8863601e-01
   1.7665171e-01
   1.6677514e-01
   1.5877188e-01
   1.5269967e-01
   1.4824458e-01
   1.4465707e-01
   1.4075195e-01
   1.3490837e-01
   1.2512258e-01
   1.0866863e-01
   8.3784099e-02
   5.2982790e-02
   2.3227085e-02
   6.4518442e-03
   1.8515106e-02
   7.3243808e-02
   1.8166856e-01
   3.4775715e-01
   5.5917705e-01
   7.8442791e-01
   9.7256735e-01
   1.0672964e+00
   1.0411257e+00
   9.0431124e-01
   6.9313222e-01
   4.5134659e-01
   2.1946252e-01
   2.7833808e-02
  -1.0979107e-01
  -1.9029850e-01
  -2.1784334e-01
  -2.0378261e-01
  -1.6330419e-01
  -1.1233149e-01
  -6.3270994e-02
  -2.3526919e-02
   4.4988175e-03
   2.2449702e-02
   3.3211518e-02
   3.9565566e-02
   4.3663606e-02
   4.7027768e-02
   5.0550553e-02
   5.4494832e-02
   5.8695977e-02
   6.3406893e-02
   6.8736637e-02
   7.4765450e-02
   8.1570438e-02
   8.9225563e-02
   9.7801654e-02
   1.0736640e-01
   1.1796632e-01
   1.2963449e-01
   1.4242279e-01
   1.5635455e-01
   1.7142350e-01
   1.8759377e-01
   2.0479989e-01
   2.2294679e-01
   2.4190983e-01
   2.6153474e-01
   2.8163766e-01
   3.0200515e-01
   3.2239416e-01
   3.4253204e-01
   3.6213861e-01
   3.8099533e-01
   3.9876050e-01
   4.1510693e-01
   4.2974530e-01
   4.4242413e-01
   4.5292985e-01
   4.6108671e-01
   4.6675685e-01
   4.6984027e-01
   4.7027484e-01
   4.6803628e-01
   4.6313688e-01
   4.5543837e-01
   4.4508080e-01
   4.3241794e-01
   4.1778808e-01
   4.0151402e-01
   3.8390305e-01
   3.6524699e-01
   3.4582215e-01
   3.2588938e-01
   3.0569400e-01
   2.8546585e-01
   2.6541930e-01
   2.4575321e-01
   2.2665094e-01
   2.0828037e-01
   1.9079390e-01
   1.7432842e-01
   1.5900533e-01
   1.4493055e-01
   1.3219265e-01
   1.2078934e-01
   1.1064485e-01
   1.0168686e-01
   9.3842992e-02
   8.7040799e-02
   8.1207768e-02
   7.6271318e-02
   7.2158805e-02
   6.8797518e-02
   6.6114682e-02
   6.4037453e-02
   6.2492923e-02
   6.1408120e-02
   6.0710002e-02
   6.0325465e-02
   6.0183409e-02
   6.0243537e-02
   6.0481214e-02
   6.0872141e-02
   6.1393663e-02
   6.2024769e-02
   6.2746093e-02
   6.3539916e-02
   6.4390162e-02
   6.5282401e-02
   6.6203847e-02
   6.7143360e-02
   6.8091445e-02
   6.9040252e-02
   6.9983574e-02
   7.0916852e-02
   7.1839560e-02
   7.2759294e-02
   7.3674622e-02
   7.4583407e-02
   7.5483908e-02
   7.6374778e-02
   7.7255064e-02
   7.8124209e-02
   7.8982052e-02
   7.9828824e-02
   8.0665156e-02
   8.1492068e-02
   8.2310979e-02
   8.3123703e-02
   8.3932446e-02
   8.4739812e-02
   8.5548799e-02
   8.6362800e-02
   8.7185602e-02
   8.8021389e-02
   8.8874738e-02
   8.9757105e-02
   9.0702758e-02
   9.1726313e-02
   9.2858326e-02
   9.4150059e-02
   9.5673472e-02
   9.7521227e-02
   9.9806687e-02
   1.0266392e-01
   1.0624768e-01
   1.1073345e-01
   1.1626813e-01
   1.2300928e-01
   1.3126643e-01
   1.4126254e-01
   1.5312340e-01
   1.6687765e-01
   1.8245674e-01
   1.9969497e-01
   2.1832946e-01
   2.3800018e-01
   2.5824992e-01
   2.7860316e-01
   2.9832963e-01
   3.1650137e-01
   3.3232673e-01
   3.4515303e-01
   3.5446660e-01
   3.5989268e-01
   3.6119554e-01
   3.5827839e-01
   3.5118341e-01
   3.3996758e-01
   3.2524575e-01
   3.0793391e-01
   2.8886598e-01
   2.6879378e-01
   2.4838701e-01
   2.2823333e-01
   2.0883825e-01
   1.9062523e-01
   1.7393562e-01
   1.5902867e-01
   1.4608155e-01
   1.3511074e-01
   1.2587410e-01
   1.1846958e-01
   1.1278394e-01
   1.0842471e-01
   1.0472019e-01
   1.0071946e-01
   9.5192382e-02
   8.6655178e-02
   7.3131917e-02
   5.2224041e-02
   2.4235391e-02
  -7.3560691e-03
  -3.5994605e-02
  -5.1285735e-02
  -4.0190678e-02
   8.4081976e-03
   1.0336258e-01
   2.5055998e-01
   4.4484244e-01
   6.6686073e-01
   8.8504131e-01
   1.0556307e+00
   1.1340637e+00
   1.1083654e+00
   9.8982012e-01
   7.9818646e-01
   5.6385607e-01
   3.2051464e-01
   9.5383074e-02
  -9.2952458e-02
  -2.3451153e-01
  -3.2663407e-01
  -3.7225941e-01
  -3.7787785e-01
  -3.5301903e-01
  -3.0924707e-01
  -2.5781275e-01
  -2.0774849e-01
  -1.6487553e-01
  -1.3214893e-01
  -1.0933435e-01
  -9.3947270e-02
  -8.3805183e-02
  -7.7098431e-02
  -7.2390186e-02
  -6.8616464e-02
  -6.5086115e-02
  -6.1478651e-02
  -5.7661228e-02
  -5.3507737e-02
  -4.8924922e-02
  -4.3827620e-02
  -3.8138770e-02
  -3.1789408e-02
  -2.4718668e-02
  -1.6873782e-02
  -8.2100806e-03
   1.3090086e-03
   1.1711959e-02
   2.3019145e-02
   3.5242845e-02
   4.8387238e-02
   6.2448404e-02
   7.7414327e-02
   9.3264891e-02
   1.0997188e-01
   1.2749899e-01
   1.4583756e-01
   1.6493290e-01
   1.8458421e-01
   2.0459007e-01
   2.2475235e-01
   2.4487626e-01
   2.6477031e-01
   2.8424637e-01
   3.0311960e-01
   3.2120850e-01
   3.3833487e-01
   3.5432385e-01
   3.6900391e-01
   3.8220682e-01
   3.9376768e-01
   4.0352491e-01
   4.1132027e-01
   4.1699882e-01
   4.2040895e-01
   4.2142730e-01
   4.2007368e-01
   4.1642036e-01
   4.1055220e-01
   4.0256697e-01
   3.9257542e-01
   3.8070122e-01
   3.6708100e-01
   3.5186431e-01
   3.3521366e-01
   3.1730452e-01
   2.9832527e-01
   2.7847726e-01
   2.5797478e-01
   2.3704504e-01
   2.1592823e-01
   1.9487745e-01
   1.7414456e-01
   1.5383867e-01
   1.3408285e-01
   1.1500578e-01
   9.6718935e-02
   7.9316537e-02
   6.2875591e-02
   4.7455868e-02
   3.3099911e-02
   1.9833031e-02
   7.6633090e-03
  -3.4184044e-03
  -1.3438488e-02
  -2.2440552e-02
  -3.0485252e-02
  -3.7607392e-02
  -4.3850557e-02
  -4.9284948e-02
  -5.3977795e-02
  -5.7993368e-02
  -6.1392969e-02
  -6.4234935e-02
  -6.6574638e-02
  -6.8464486e-02
  -6.9953919e-02
  -7.1089415e-02
  -7.1914484e-02
  -7.2469672e-02
  -7.2792560e-02
  -7.2917763e-02
  -7.2876931e-02
  -7.2698750e-02
  -7.2401432e-02
  -7.1975544e-02
  -7.1438797e-02
  -7.0811083e-02
  -7.0110687e-02
  -6.9354285e-02
  -6.8556944e-02
  -6.7732124e-02
  -6.6891676e-02
  -6.6045842e-02
  -6.5203255e-02
  -6.4370941e-02
  -6.3554318e-02
  -6.2757194e-02
  -6.1981769e-02
  -6.1228635e-02
  -6.0496776e-02
  -5.9783566e-02
  -5.9084772e-02
  -5.8394552e-02
  -5.7705456e-02
  -5.7008814e-02
  -5.6306663e-02
  -5.5605350e-02
  -5.4908542e-02
  -5.4219164e-02
  -5.3539406e-02
  -5.2870719e-02
  -5.2213815e-02
  -5.1568669e-02
  -5.0934517e-02
  -5.0309857e-02
  -4.9692449e-02
  -4.9079317e-02
  -4.8466744e-02
  -4.7850275e-02
  -4.7224719e-02
  -4.6584145e-02
  -4.5921885e-02
  -4.5230533e-02
  -4.4501943e-02
  -4.3727235e-02
  -4.2980498e-02
  -4.2333899e-02
  -4.1643699e-02
  -4.0768716e-02
  -3.9575170e-02
  -3.7936676e-02
  -3.5734249e-02
  -3.2856301e-02
  -2.9198643e-02
  -2.4664485e-02
  -1.9164433e-02
  -1.2616494e-02
  -4.9460724e-03
   3.9140305e-03
   1.4023614e-02
   2.5435078e-02
   3.8193427e-02
   5.2336265e-02
   6.7893797e-02
   8.4888833e-02
   1.0331340e-01
   1.2278791e-01
   1.4279643e-01
   1.6285137e-01
   1.8246632e-01
   2.0115601e-01
   2.1843637e-01
   2.3382447e-01
   2.4683855e-01
   2.5699802e-01
   2.6383415e-01
   2.6709030e-01
   2.6671392e-01
   2.6274002e-01
   2.5529431e-01
   2.4459317e-01
   2.3094365e-01
   2.1474350e-01
   1.9648116e-01
   1.7673571e-01
   1.5615472e-01
   1.3523124e-01
   1.1445998e-01
   9.4290574e-02
   7.5095692e-02
   5.7171050e-02
   4.0735397e-02
   2.5930524e-02
   1.2821256e-02
   1.3856456e-03
  -8.4969611e-03
  -1.6811740e-02
  -2.3623151e-02
  -2.9124412e-02
  -3.3637505e-02
  -3.7613172e-02
  -4.1630915e-02
  -4.6398999e-02
  -5.2194945e-02
  -6.0704597e-02
  -7.5004250e-02
  -9.6351326e-02
  -1.2412801e-01
  -1.5584124e-01
  -1.8712271e-01
  -2.1172889e-01
  -2.2182513e-01
  -2.1124981e-01
  -1.6721267e-01
  -8.0117333e-02
   5.3071027e-02
   2.2882567e-01
   4.3705832e-01
   6.6111914e-01
   8.7747625e-01
   1.0527303e+00
   1.1554733e+00
   1.1663064e+00
   1.0772887e+00
   8.9673393e-01
   6.6147824e-01
   4.1939363e-01
   2.0834274e-01
   4.8797346e-02
  -5.1827660e-02
  -9.5308772e-02
  -9.2293091e-02
  -5.8069752e-02
  -1.0114755e-02
   3.7982541e-02
   7.7628524e-02
   1.0512654e-01
   1.2179088e-01
   1.3116289e-01
   1.3614625e-01
   1.3891168e-01
   1.4089684e-01
   1.4283760e-01
   1.4509326e-01
   1.4780338e-01
   1.5107268e-01
   1.5499951e-01
   1.5967577e-01
   1.6518699e-01
   1.7161225e-01
   1.7902427e-01
   1.8748933e-01
   1.9706450e-01
   2.0777793e-01
   2.1966546e-01
   2.3273878e-01
   2.4697656e-01
   2.6232450e-01
   2.7869532e-01
   2.9596875e-01
   3.1399153e-01
   3.3257745e-01
   3.5150727e-01
   3.7052880e-01
   3.8939202e-01
   4.0785923e-01
   4.2555152e-01
   4.4211314e-01
   4.5722285e-01
   4.7059396e-01
   4.8197429e-01
   4.9114621e-01
   4.9792660e-01
   5.0216688e-01
   5.0375298e-01
   5.0260539e-01
   4.9867800e-01
   4.9179547e-01
   4.8208111e-01
   4.6987186e-01
   4.5549358e-01
   4.3926103e-01
   4.2147790e-01
   4.0243675e-01
   3.8241908e-01
   3.6169528e-01
   3.4052465e-01
   3.1915541e-01
   2.9782465e-01
   2.7675842e-01
   2.5617163e-01
   2.3626813e-01
   2.1724066e-01
   1.9927087e-01
   1.8252933e-01
   1.6717211e-01
   1.5323004e-01
   1.4063339e-01
   1.2931583e-01
   1.1920996e-01
   1.1024729e-01
   1.0235827e-01
   9.5472274e-02
   8.9517588e-02
   8.4421429e-02
   8.0109939e-02
   7.6508183e-02
   7.3540150e-02
   7.1128752e-02
   6.9195826e-02
   6.7662135e-02
   6.6447363e-02
   6.5470514e-02
   6.4687047e-02
   6.4081055e-02
   6.3630048e-02
   6.3312850e-02
   6.3109605e-02
   6.3001771e-02
   6.2972124e-02
   6.3004757e-02
   6.3085076e-02
   6.3199808e-02
   6.3336993e-02
   6.3485989e-02
   6.3637470e-02
   6.3784195e-02
   6.3933099e-02
   6.4086584e-02
   6.4243336e-02
   6.4402289e-02
   6.4562624e-02
   6.4723768e-02
   6.4885395e-02
   6.5047426e-02
   6.5210031e-02
   6.5373623e-02
   6.5538866e-02
   6.5706666e-02
   6.5878181e-02
   6.6054812e-02
   6.6238210e-02
   6.6430270e-02
   6.6633135e-02
   6.6849196e-02
   6.7081090e-02
   6.7334358e-02
   6.7635240e-02
   6.7987605e-02
   6.8405288e-02
   6.8921622e-02
   6.9589444e-02
   7.0481090e-02
   7.1688397e-02
   7.3322704e-02
   7.5514852e-02
   7.8413564e-02
   8.2113525e-02
   8.6882895e-02
   9.3026329e-02
   1.0077665e-01
   1.1029484e-01
   1.2167006e-01
   1.3491962e-01
   1.4998902e-01
   1.6675192e-01
   1.8501012e-01
   2.0467124e-01
   2.2519040e-01
   2.4549712e-01
   2.6464379e-01
   2.8181048e-01
   2.9630498e-01
   3.0756279e-01
   3.1514711e-01
   3.1874882e-01
   3.1818654e-01
   3.1340658e-01
   3.0448296e-01
   2.9159306e-01
   2.7524938e-01
   2.5648099e-01
   2.3624566e-01
   2.1538600e-01
   1.9462949e-01
   1.7458846e-01
   1.5576007e-01
   1.3852635e-01
   1.2315419e-01
   1.0979531e-01
   9.8486306e-02
   8.9148601e-02
   8.1588485e-02
   7.5518194e-02
   7.0691320e-02
   6.6632442e-02
   6.2470680e-02
   5.6973741e-02
   4.8045369e-02
   3.3359411e-02
   1.1582286e-02
  -1.7477873e-02
  -4.9375803e-02
  -7.5169595e-02
  -8.4146569e-02
  -6.3883224e-02
  -1.6936206e-03
   1.1175258e-01
   2.7943512e-01
   4.8967364e-01
   7.1573775e-01
   9.1597610e-01
   1.0425928e+00
   1.0598786e+00
   9.5428552e-01
   7.5328116e-01
   5.1121307e-01
   2.8099303e-01
   9.8306764e-02
  -2.0699393e-02
  -7.6220124e-02
  -7.9511955e-02
  -4.7109719e-02
   2.1741649e-03
   5.0061752e-02
   8.7889130e-02
   1.1286285e-01
   1.2670049e-01
   1.3411098e-01
   1.3809134e-01
   1.4074681e-01
   1.4327849e-01
   1.4607480e-01
   1.4936083e-01
   1.5327254e-01
   1.5792218e-01
   1.6341204e-01
   1.6982309e-01
   1.7721860e-01
   1.8572835e-01
   1.9545561e-01
   2.0646790e-01
   2.1879697e-01
   2.3243880e-01
   2.4735364e-01
   2.6346592e-01
   2.8066436e-01
   2.9880188e-01
   3.1769564e-01
   3.3714206e-01
   3.5694237e-01
   3.7669963e-01
   3.9600672e-01
   4.1448032e-01
   4.3176098e-01
   4.4751304e-01
   4.6142471e-01
   4.7320798e-01
   4.8259871e-01
   4.8935656e-01
   4.9326504e-01
   4.9411879e-01
   4.9174817e-01
   4.8631726e-01
   4.7805565e-01
   4.6720640e-01
   4.5402601e-01
   4.3878446e-01
   4.2176517e-01
   4.0326502e-01
   3.8359432e-01
   3.6307687e-01
   3.4204991e-01
   3.2086412e-01
   2.9988366e-01
   2.7948612e-01
   2.6005886e-01
   2.4179291e-01
   2.2474858e-01
   2.0900395e-01
   1.9461358e-01
   1.8160855e-01
   1.6999646e-01
   1.5976138e-01
   1.5086390e-01
   1.4324113e-01
   1.3680665e-01
   1.3145058e-01
   1.2703952e-01
   1.2342157e-01
   1.2051601e-01
   1.1824175e-01
   1.1650754e-01
   1.1523035e-01
   1.1433531e-01
   1.1375577e-01
   1.1343330e-01
   1.1331762e-01
   1.1336668e-01
   1.1354663e-01
   1.1383182e-01
   1.1421120e-01
   1.1467506e-01
   1.1520413e-01
   1.1578128e-01
   1.1639161e-01
   1.1702240e-01
   1.1766316e-01
   1.1830558e-01
   1.1894356e-01
   1.1957321e-01
   1.2019282e-01
   1.2080290e-01
   1.2140617e-01
   1.2200754e-01
   1.2261413e-01
   1.2322846e-01
   1.2384417e-01
   1.2445941e-01
   1.2507328e-01
   1.2568580e-01
   1.2629793e-01
   1.2691154e-01
   1.2752942e-01
   1.2815528e-01
   1.2879376e-01
   1.2945043e-01
   1.3013818e-01
   1.3088208e-01
   1.3169219e-01
   1.3260138e-01
   1.3366841e-01
   1.3497792e-01
   1.3664040e-01
   1.3879225e-01
   1.4159572e-01
   1.4520999e-01
   1.4983393e-01
   1.5582915e-01
   1.6348802e-01
   1.7301870e-01
   1.8454518e-01
   1.9810725e-01
   2.1366049e-01
   2.3107630e-01
   2.5020646e-01
   2.7060742e-01
   2.9123220e-01
   3.1109103e-01
   3.2928745e-01
   3.4501827e-01
   3.5757358e-01
   3.6633680e-01
   3.7078459e-01
   3.7048695e-01
   3.6512238e-01
   3.5504533e-01
   3.4119203e-01
   3.2447450e-01
   3.0576098e-01
   2.8587596e-01
   2.6560014e-01
   2.4567047e-01
   2.2678014e-01
   2.0957855e-01
   1.9457067e-01
   1.8178488e-01
   1.7121294e-01
   1.6274052e-01
   1.5613177e-01
   1.5102934e-01
   1.4695433e-01
   1.4339335e-01
   1.3837969e-01
   1.2948983e-01
   1.1475575e-01
   9.2664899e-02
   6.3004685e-02
   3.2121255e-02
   1.1161347e-02
   1.4577298e-02
   5.7838099e-02
   1.5445373e-01
   3.0878030e-01
   5.1321110e-01
   7.3945470e-01
   9.3822977e-01
   1.0526806e+00
   1.0571882e+00
   9.5909063e-01
   7.7710589e-01
   5.4528910e-01
   3.0278292e-01
   8.1121277e-02
  -9.8998364e-02
  -2.2754979e-01
  -3.0322859e-01
  -3.3100710e-01
  -3.1991977e-01
  -2.8254912e-01
  -2.3235158e-01
  -1.8097387e-01
  -1.3619001e-01
  -1.0202229e-01
  -7.8633133e-02
  -6.3206389e-02
  -5.3230720e-02
  -4.6661720e-02
  -4.1921914e-02
  -3.7900762e-02
  -3.3954655e-02
  -2.9841640e-02
  -2.5391776e-02
  -2.0496985e-02
  -1.5062723e-02
  -9.0031798e-03
  -2.2412807e-03
   5.2913160e-03
   1.3654218e-02
   2.2898297e-02
   3.3065694e-02
   4.4189813e-02
   5.6295325e-02
   6.9398167e-02
   8.3505542e-02
   9.8615919e-02
   1.1471903e-01
   1.3179588e-01
   1.4989344e-01
   1.6894141e-01
   1.8871947e-01
   2.0900942e-01
   2.2959529e-01
   2.5026337e-01
   2.7080217e-01
   2.9100245e-01
   3.1065721e-01
   3.2956170e-01
   3.4751337e-01
   3.6431196e-01
   3.7975943e-01
   3.9365996e-01
   4.0582000e-01
   4.1604823e-01
   4.2415556e-01
   4.2995514e-01
   4.3326239e-01
   4.3393776e-01
   4.3203611e-01
   4.2767214e-01
   4.2097261e-01
   4.1207639e-01
   4.0113453e-01
   3.8831017e-01
   3.7377864e-01
   3.5772738e-01
   3.4035599e-01
   3.2187618e-01
   3.0251184e-01
   2.8249897e-01
   2.6208573e-01
   2.4153241e-01
   2.2111144e-01
   2.0110740e-01
   1.8176032e-01
   1.6313978e-01
   1.4536026e-01
   1.2852337e-01
   1.1271214e-01
   9.7990979e-02
   8.4405682e-02
   7.1983433e-02
   6.0732807e-02
   5.0643766e-02
   4.1687661e-02
   3.3817233e-02
   2.6966611e-02
   2.1051311e-02
   1.5994538e-02
   1.1753087e-02
   8.2492245e-03
   5.4081998e-03
   3.1595703e-03
   1.4372023e-03
   1.7927060e-04
  -6.7174149e-04
  -1.1690419e-03
  -1.3615301e-03
  -1.2937969e-03
  -1.0061244e-03
  -5.3448626e-04
   8.9452475e-05
   8.3833594e-04
   1.7074299e-03
   2.6920674e-03
   3.7702424e-03
   4.9218413e-03
   6.1286424e-03
   7.3743159e-03
   8.6444244e-03
   9.9264221e-03
   1.1209656e-02
   1.2485364e-02
   1.3746677e-02
   1.4988617e-02
   1.6208100e-02
   1.7403931e-02
   1.8576811e-02
   1.9729329e-02
   2.0865968e-02
   2.1993104e-02
   2.3119003e-02
   2.4250112e-02
   2.5378405e-02
   2.6500017e-02
   2.7612496e-02
   2.8714085e-02
